# tau,g1,g1^2
1.399999999999999911e+00,9.992999999999999661e-01,9.986004899999999518e-01
1.600000000000000089e+00,9.989000000000000101e-01,9.978012099999999940e-01
2.000000000000000000e+00,9.982999999999999652e-01,9.966028899999999080e-01
2.399999999999999911e+00,9.978000000000000203e-01,9.956048400000000465e-01
5.000000000000000000e+00,9.952999999999999625e-01,9.906220899999998997e-01
1.000000000000000000e+01,9.926000000000000378e-01,9.852547600000001182e-01
1.500000000000000000e+01,9.906000000000000361e-01,9.812883600000000817e-01
2.000000000000000000e+01,9.887000000000000233e-01,9.775276900000000602e-01
2.500000000000000000e+01,9.868000000000000105e-01,9.737742400000000131e-01
3.000000000000000000e+01,9.848999999999999977e-01,9.700280099999999406e-01
3.500000000000000000e+01,9.829999999999999849e-01,9.662889999999999535e-01
4.000000000000000000e+01,9.810999999999999721e-01,9.625572099999999409e-01
4.500000000000000000e+01,9.791999999999999593e-01,9.588326399999999028e-01
5.000000000000000000e+01,9.772999999999999465e-01,9.551152899999999502e-01
5.500000000000000000e+01,9.755000000000000338e-01,9.516002500000000364e-01
6.000000000000000000e+01,9.736000000000000210e-01,9.478969600000000106e-01
6.500000000000000000e+01,9.717000000000000082e-01,9.442008900000000704e-01
7.000000000000000000e+01,9.698999999999999844e-01,9.407060099999999814e-01
7.500000000000000000e+01,9.679999999999999716e-01,9.370239999999999680e-01
8.000000000000000000e+01,9.661999999999999478e-01,9.335424399999998624e-01
8.500000000000000000e+01,9.643000000000000460e-01,9.298744900000001090e-01
9.000000000000000000e+01,9.625000000000000222e-01,9.264062500000000977e-01
9.500000000000000000e+01,9.606999999999999984e-01,9.229444900000000063e-01
1.000000000000000000e+02,9.587999999999999856e-01,9.192974400000000212e-01
1.050000000000000000e+02,9.569999999999999618e-01,9.158489999999999132e-01
1.100000000000000000e+02,9.552000000000000490e-01,9.124070400000000580e-01
1.150000000000000000e+02,9.534000000000000252e-01,9.089715600000000117e-01
1.200000000000000000e+02,9.516000000000000014e-01,9.055425599999999964e-01
1.250000000000000000e+02,9.497999999999999776e-01,9.021200400000000119e-01
1.350000000000000000e+02,9.462000000000000410e-01,8.952944400000000247e-01
1.400000000000000000e+02,9.444000000000000172e-01,8.918913600000000219e-01
1.500000000000000000e+02,9.407999999999999696e-01,8.851046399999999981e-01
1.550000000000000000e+02,9.391000000000000458e-01,8.819088100000000985e-01
1.650000000000000000e+02,9.354999999999999982e-01,8.751602499999999729e-01
1.750000000000000000e+02,9.320000000000000506e-01,8.686240000000000627e-01
1.850000000000000000e+02,9.284999999999999920e-01,8.621122500000000244e-01
1.950000000000000000e+02,9.250000000000000444e-01,8.556250000000000799e-01
2.050000000000000000e+02,9.214999999999999858e-01,8.491622500000000073e-01
2.150000000000000000e+02,9.181000000000000272e-01,8.429076100000000293e-01
2.300000000000000000e+02,9.130000000000000338e-01,8.335690000000001154e-01
2.400000000000000000e+02,9.095999999999999641e-01,8.273721599999999121e-01
2.550000000000000000e+02,9.044999999999999707e-01,8.181202499999999933e-01
2.700000000000000000e+02,8.993999999999999773e-01,8.089203600000000050e-01
2.800000000000000000e+02,8.961000000000000076e-01,8.029952099999999593e-01
3.000000000000000000e+02,8.894999999999999574e-01,7.912102499999998928e-01
3.150000000000000000e+02,8.846000000000000529e-01,7.825171600000000449e-01
3.300000000000000000e+02,8.797000000000000375e-01,7.738720900000000125e-01
3.500000000000000000e+02,8.731999999999999762e-01,7.624782399999999738e-01
3.700000000000000000e+02,8.668000000000000149e-01,7.513422400000000501e-01
3.900000000000000000e+02,8.605000000000000426e-01,7.404602500000000420e-01
4.100000000000000000e+02,8.541999999999999593e-01,7.296576399999998852e-01
4.300000000000000000e+02,8.479999999999999760e-01,7.191039999999999655e-01
4.550000000000000000e+02,8.403000000000000469e-01,7.061040900000000731e-01
4.800000000000000000e+02,8.326999999999999957e-01,6.933892900000000470e-01
5.050000000000000000e+02,8.252000000000000446e-01,6.809550400000000669e-01
5.350000000000000000e+02,8.163000000000000256e-01,6.663456899999999905e-01
5.650000000000000000e+02,8.075999999999999845e-01,6.522177599999999797e-01
5.950000000000000000e+02,7.989000000000000545e-01,6.382412100000001143e-01
6.250000000000000000e+02,7.903999999999999915e-01,6.247321599999999808e-01
6.600000000000000000e+02,7.805999999999999606e-01,6.093363599999999103e-01
6.950000000000000000e+02,7.709000000000000297e-01,5.942868100000000542e-01
7.350000000000000000e+02,7.600999999999999979e-01,5.777520099999999825e-01
7.750000000000000000e+02,7.495000000000000551e-01,5.617502500000001175e-01
8.150000000000000000e+02,7.389999999999999902e-01,5.461209999999999676e-01
8.600000000000000000e+02,7.274000000000000465e-01,5.291107600000000133e-01
9.050000000000000000e+02,7.160999999999999588e-01,5.127992099999999498e-01
9.550000000000000000e+02,7.037999999999999812e-01,4.953344399999999870e-01
1.010000000000000000e+03,6.905000000000000027e-01,4.767902500000000265e-01
1.060000000000000000e+03,6.774999999999999911e-01,4.590062500000000045e-01
1.120000000000000000e+03,6.649000000000000465e-01,4.420920100000000352e-01
1.180000000000000000e+03,6.502999999999999892e-01,4.228900899999999963e-01
1.240000000000000000e+03,6.370999999999999996e-01,4.058964099999999853e-01
1.320000000000000000e+03,6.221999999999999753e-01,3.871328399999999781e-01
1.380000000000000000e+03,6.077000000000000179e-01,3.692992900000000023e-01
1.460000000000000000e+03,5.915000000000000258e-01,3.498722500000000513e-01
1.540000000000000000e+03,5.768999999999999684e-01,3.328136099999999820e-01
1.620000000000000000e+03,5.607999999999999652e-01,3.144966399999999385e-01
1.720000000000000000e+03,5.443000000000000060e-01,2.962624899999999895e-01
1.810000000000000000e+03,5.273999999999999799e-01,2.781507599999999969e-01
1.900000000000000000e+03,5.111999999999999877e-01,2.613254399999999644e-01
2.010000000000000000e+03,4.939000000000000057e-01,2.439372100000000154e-01
2.120000000000000000e+03,4.764999999999999791e-01,2.270522499999999833e-01
2.240000000000000000e+03,4.590000000000000191e-01,2.106810000000000072e-01
2.360000000000000000e+03,4.408000000000000251e-01,1.943046400000000284e-01
2.480000000000000000e+03,4.233999999999999986e-01,1.792675599999999925e-01
2.620000000000000000e+03,4.053999999999999826e-01,1.643491599999999941e-01
2.760000000000000000e+03,3.870000000000000107e-01,1.497690000000000132e-01
2.920000000000000000e+03,3.689999999999999947e-01,1.361610000000000043e-01
3.080000000000000000e+03,3.507000000000000117e-01,1.229904900000000079e-01
3.240000000000000000e+03,3.327999999999999847e-01,1.107558399999999943e-01
3.420000000000000000e+03,3.145000000000000018e-01,9.891025000000000511e-02
3.600000000000000000e+03,2.967000000000000193e-01,8.803089000000001441e-02
3.800000000000000000e+03,2.791000000000000147e-01,7.789681000000001077e-02
4.010000000000000000e+03,2.614000000000000212e-01,6.832996000000000902e-02
4.220000000000000000e+03,2.444999999999999951e-01,5.978025000000000005e-02
4.460000000000000000e+03,2.273999999999999910e-01,5.171075999999999451e-02
4.700000000000000000e+03,2.111000000000000099e-01,4.456321000000000587e-02
4.960000000000000000e+03,1.952000000000000124e-01,3.810304000000000468e-02
5.220000000000000000e+03,1.796999999999999986e-01,3.229209000000000246e-02
5.510000000000000000e+03,1.648000000000000020e-01,2.715904000000000235e-02
5.810000000000000000e+03,1.504000000000000059e-01,2.262016000000000027e-02
6.130000000000000000e+03,1.365000000000000102e-01,1.863225000000000298e-02
6.460000000000000000e+03,1.233999999999999958e-01,1.522755999999999936e-02
6.820000000000000000e+03,1.111000000000000043e-01,1.234321000000000029e-02
7.180000000000000000e+03,9.950000000000000511e-02,9.900250000000001063e-03
7.580000000000000000e+03,8.848999999999999921e-02,7.830480100000000374e-03
7.990000000000000000e+03,7.839000000000000135e-02,6.144992100000000630e-03
8.420000000000000000e+03,6.897999999999999965e-02,4.758240399999999655e-03
